#                                           Drag Simulation                                          #
#| V0 = 10.000000 | G = 9.810000 | Sx0 = 0.000000 | Sy0 = 0.000000 | Theta = 60.000000 | M = 1.000000 | K = 0.200000 | Collision = 1 |#
######################################################################################################
# |     Sx     |     Sy     |     Vx     |     Vy     |     Ec     |     Time     | #
     0.000000   0.000000     5.000000   8.660254   50.000000    0.000000
     0.049900   0.085448     4.989999   8.544834   48.957142    0.010000
     0.099700   0.169745     4.980019   8.429645   47.929749    0.020000
     0.149401   0.252892     4.970059   8.314685   46.917736    0.030000
     0.199002   0.334891     4.960119   8.199956   45.921028    0.040000
     0.248504   0.415746     4.950199   8.085456   44.939533    0.050000
     0.297907   0.495458     4.940298   7.971185   43.973171    0.060000
     0.347211   0.574029     4.930418   7.857143   43.021854    0.070000
     0.396417   0.651462     4.920557   7.743329   42.085506    0.080000
     0.445524   0.727760     4.910716   7.629742   41.164043    0.090000
     0.494533   0.802924     4.900894   7.516382   40.257381    0.100000
     0.543444   0.876956     4.891092   7.403249   39.365440    0.110000
     0.592257   0.949859     4.881310   7.290343   38.488144    0.120000
     0.640972   1.021636     4.871547   7.177662   37.625401    0.130000
     0.689590   1.092288     4.861804   7.065207   36.777142    0.140000
     0.738111   1.161818     4.852080   6.952976   35.943279    0.150000
     0.786535   1.230228     4.842376   6.840970   35.123741    0.160000
     0.834862   1.297519     4.832692   6.729188   34.318439    0.170000
     0.883092   1.363696     4.823026   6.617630   33.527302    0.180000
     0.931226   1.428759     4.813380   6.506294   32.750248    0.190000
     0.979263   1.492711     4.803753   6.395182   31.987198    0.200000
     1.027205   1.555554     4.794146   6.284291   31.238077    0.210000
     1.075050   1.617290     4.784558   6.173623   30.502806    0.220000
     1.122800   1.677922     4.774989   6.063175   29.781305    0.230000
     1.170455   1.737451     4.765439   5.952949   29.073503    0.240000
     1.218014   1.795881     4.755908   5.842943   28.379320    0.250000
     1.265478   1.853212     4.746396   5.733157   27.698681    0.260000
     1.312847   1.909448     4.736903   5.623591   27.031511    0.270000
     1.360121   1.964590     4.727429   5.514244   26.377733    0.280000
     1.407301   2.018641     4.717974   5.405115   25.737274    0.290000
     1.454386   2.071604     4.708538   5.296205   25.110060    0.300000
     1.501377   2.123479     4.699121   5.187512   24.496012    0.310000
     1.548275   2.174269     4.689723   5.079037   23.895058    0.320000
     1.595078   2.223977     4.680343   4.970779   23.307127    0.330000
     1.641788   2.272604     4.670982   4.862737   22.732145    0.340000
     1.688404   2.320153     4.661640   4.754912   22.170038    0.350000
     1.734927   2.366626     4.652317   4.647302   21.620735    0.360000
     1.781358   2.412025     4.643013   4.539907   21.084162    0.370000
     1.827695   2.456353     4.633727   4.432728   20.560249    0.380000
     1.873939   2.499610     4.624459   4.325762   20.048922    0.390000
     1.920092   2.541800     4.615211   4.219011   19.550110    0.400000
     1.966151   2.582925     4.605980   4.112473   19.063744    0.410000
     2.012119   2.622987     4.596768   4.006148   18.589748    0.420000
     2.057995   2.661987     4.587574   3.900036   18.128059    0.430000
     2.103779   2.699929     4.578399   3.794136   17.678602    0.440000
     2.149471   2.736813     4.569242   3.688447   17.241310    0.450000
     2.195072   2.772643     4.560104   3.582970   16.816113    0.460000
     2.240582   2.807420     4.550984   3.477705   16.402941    0.470000
     2.286001   2.841146     4.541882   3.372649   16.001728    0.480000
     2.331329   2.873824     4.532798   3.267804   15.612401    0.490000
     2.376566   2.905456     4.523733   3.163168   15.234895    0.500000
     2.421713   2.936044     4.514685   3.058742   14.869142    0.510000
     2.466770   2.965589     4.505656   2.954524   14.515074    0.520000
     2.511736   2.994094     4.496644   2.850515   14.172624    0.530000
     2.556613   3.021561     4.487651   2.746714   13.841726    0.540000
     2.601399   3.047992     4.478676   2.643121   13.522312    0.550000
     2.646097   3.073390     4.469718   2.539735   13.214317    0.560000
     2.690705   3.097755     4.460779   2.436555   12.917676    0.570000
     2.735223   3.121091     4.451858   2.333582   12.632320    0.580000
     2.779653   3.143399     4.442954   2.230815   12.358188    0.590000
     2.823993   3.164682     4.434068   2.128253   12.095211    0.600000
     2.868245   3.184941     4.425200   2.025897   11.843326    0.610000
     2.912409   3.204178     4.416349   1.923745   11.602468    0.620000
     2.956484   3.222396     4.407516   1.821797   11.372573    0.630000
     3.000471   3.239597     4.398702   1.720054   11.153581    0.640000
     3.044370   3.255782     4.389904   1.618514   10.945424    0.650000
     3.088181   3.270954     4.381124   1.517177   10.748038    0.660000
     3.131905   3.285114     4.372362   1.416042   10.561363    0.670000
     3.175541   3.298265     4.363617   1.315110   10.385336    0.680000
     3.219090   3.310409     4.354890   1.214380   10.219894    0.690000
     3.262552   3.321548     4.346180   1.113851   10.064975    0.700000
     3.305926   3.331683     4.337488   1.013523   9.920517    0.710000
     3.349215   3.340817     4.328813   0.913396   9.786458    0.720000
     3.392416   3.348951     4.320156   0.813470   9.662739    0.730000
     3.435531   3.356089     4.311515   0.713743   9.549296    0.740000
     3.478560   3.362231     4.302892   0.614215   9.446071    0.750000
     3.521503   3.367380     4.294286   0.514887   9.353002    0.760000
     3.564360   3.371537     4.285697   0.415757   9.270028    0.770000
     3.607131   3.374706     4.277126   0.316825   9.197092    0.780000
     3.649817   3.376887     4.268571   0.218092   9.134132    0.790000
     3.692417   3.378082     4.260034   0.119556   9.081092    0.800000
     3.734932   3.378294     4.251514   0.021217   9.037910    0.810000
     3.777362   3.377525     4.243011   -0.076926   9.004530    0.820000
     3.819708   3.375776     4.234525   -0.174872   8.980892    0.830000
     3.861968   3.373050     4.226056   -0.272622   8.966936    0.839999
     3.904144   3.369348     4.217604   -0.370177   8.962608    0.849999
     3.946236   3.364673     4.209169   -0.467537   8.967847    0.859999
     3.988243   3.359026     4.200750   -0.564702   8.982595    0.869999
     4.030167   3.352409     4.192349   -0.661672   9.006800    0.879999
     4.072006   3.344825     4.183964   -0.758449   9.040401    0.889999
     4.113762   3.336274     4.175596   -0.855032   9.083342    0.899999
     4.155435   3.326760     4.167245   -0.951422   9.135567    0.909999
     4.197024   3.316284     4.158910   -1.047619   9.197021    0.919999
     4.238530   3.304847     4.150592   -1.143624   9.267646    0.929999
     4.279953   3.292453     4.142291   -1.239437   9.347389    0.939999
     4.321292   3.279103     4.134007   -1.335058   9.436194    0.949999
     4.362550   3.264798     4.125739   -1.430488   9.534007    0.959999
     4.403725   3.249540     4.117487   -1.525727   9.640771    0.969999
     4.444817   3.233333     4.109252   -1.620775   9.756433    0.979999
     4.485827   3.216176     4.101034   -1.715634   9.880939    0.989999
     4.526756   3.198073     4.092832   -1.810302   10.014233    0.999999
     4.567602   3.179025     4.084646   -1.904782   10.156262    1.009999
     4.608367   3.159035     4.076477   -1.999072   10.306976    1.019999
     4.649050   3.138103     4.068324   -2.093174   10.466318    1.029999
     4.689652   3.116232     4.060187   -2.187088   10.634235    1.039999
     4.730173   3.093424     4.052066   -2.280814   10.810677    1.049999
     4.770612   3.069680     4.043962   -2.374352   10.995588    1.059999
     4.810971   3.045003     4.035874   -2.467703   11.188919    1.069999
     4.851249   3.019395     4.027802   -2.560868   11.390617    1.079999
     4.891446   2.992856     4.019746   -2.653846   11.600630    1.089999
     4.931563   2.965390     4.011707   -2.746639   11.818908    1.099999
     4.971600   2.936997     4.003684   -2.839245   12.045398    1.109999
     5.011557   2.907681     3.995676   -2.931667   12.280049    1.119999
     5.051434   2.877442     3.987685   -3.023904   12.522812    1.129999
     5.091231   2.846282     3.979710   -3.115956   12.773635    1.139999
     5.130949   2.814204     3.971750   -3.207824   13.032468    1.149999
     5.170587   2.781209     3.963807   -3.299508   13.299260    1.159999
     5.210145   2.747299     3.955879   -3.391009   13.573962    1.169999
     5.249625   2.712476     3.947968   -3.482327   13.856525    1.179999
     5.289026   2.676741     3.940072   -3.573462   14.146899    1.189999
     5.328348   2.640097     3.932191   -3.664416   14.445035    1.199999
     5.367591   2.602545     3.924327   -3.755187   14.750885    1.209999
     5.406755   2.564087     3.916478   -3.845776   15.064399    1.219999
     5.445842   2.524725     3.908645   -3.936185   15.385530    1.229999
     5.484850   2.484461     3.900828   -4.026412   15.714228    1.239999
     5.523780   2.443296     3.893026   -4.116460   16.050447    1.249999
     5.562633   2.401233     3.885240   -4.206327   16.394138    1.259999
     5.601407   2.358273     3.877470   -4.296014   16.745255    1.269999
     5.640104   2.314418     3.869714   -4.385522   17.103748    1.279999
     5.678724   2.269669     3.861975   -4.474851   17.469572    1.289999
     5.717266   2.224029     3.854251   -4.564002   17.842680    1.299999
     5.755732   2.177499     3.846542   -4.652974   18.223026    1.309999
     5.794120   2.130082     3.838849   -4.741768   18.610563    1.319999
     5.832432   2.081778     3.831172   -4.830384   19.005243    1.329999
     5.870667   2.032590     3.823509   -4.918824   19.407024    1.339999
     5.908825   1.982519     3.815862   -5.007086   19.815859    1.349999
     5.946908   1.931567     3.808230   -5.095172   20.231697    1.359999
     5.984914   1.879736     3.800614   -5.183082   20.654501    1.369999
     6.022844   1.827028     3.793013   -5.270815   21.084219    1.379999
     6.060698   1.773444     3.785427   -5.358374   21.520811    1.389999
     6.098476   1.718987     3.777856   -5.445757   21.964231    1.399999
     6.136179   1.663657     3.770300   -5.532965   22.414433    1.409999
     6.173807   1.607457     3.762759   -5.619999   22.871376    1.419999
     6.211360   1.550389     3.755234   -5.706860   23.335014    1.429999
     6.248837   1.492453     3.747724   -5.793546   23.805302    1.439999
     6.286239   1.433653     3.740228   -5.880059   24.282200    1.449999
     6.323566   1.373989     3.732748   -5.966399   24.765659    1.459999
     6.360819   1.313463     3.725282   -6.052566   25.255642    1.469999
     6.397997   1.252077     3.717832   -6.138561   25.752100    1.479999
     6.435102   1.189833     3.710396   -6.224384   26.254997    1.489999
     6.472131   1.126733     3.702975   -6.310035   26.764286    1.499999
     6.509087   1.062778     3.695569   -6.395515   27.279922    1.509999
     6.545969   0.997970     3.688178   -6.480824   27.801868    1.519999
     6.582777   0.932310     3.680802   -6.565962   28.330080    1.529999
     6.619512   0.865801     3.673440   -6.650930   28.864519    1.539999
     6.656173   0.798443     3.666093   -6.735729   29.405140    1.549999
     6.692760   0.730240     3.658761   -6.820357   29.951902    1.559999
     6.729275   0.661192     3.651443   -6.904817   30.504766    1.569999
     6.765716   0.591301     3.644140   -6.989107   31.063688    1.579999
     6.802084   0.520568     3.636852   -7.073229   31.628630    1.589999
     6.838380   0.448996     3.629579   -7.157182   32.199551    1.599999
     6.874604   0.376587     3.622319   -7.240968   32.776405    1.609999
     6.910755   0.303341     3.615075   -7.324586   33.359161    1.619999
     6.946833   0.229261     3.607845   -7.408037   33.947777    1.629999
     6.982840   0.154347     3.600629   -7.491321   34.542206    1.639999
     7.018774   0.078603     3.593428   -7.574438   35.142418    1.649999
     7.054636   0.002029     3.586241   -7.657389   35.748367    1.659999
     7.090427   0.000000     3.579068   7.740174   36.360016    1.669999
     7.126146   0.076266     3.571910   7.626594   35.461739    1.679999
     7.161794   0.151398     3.564767   7.513241   34.578175    1.689999
     7.197371   0.225399     3.557637   7.400115   33.709240    1.699999
     7.232876   0.298272     3.550522   7.287214   32.854847    1.709999
     7.268310   0.370017     3.543421   7.174540   32.014927    1.719999
     7.303673   0.440638     3.536334   7.062091   31.189392    1.729999
     7.338966   0.510137     3.529261   6.949867   30.378166    1.739999
     7.374188   0.578515     3.522203   6.837867   29.581171    1.749999
     7.409339   0.645776     3.515158   6.726091   28.798323    1.759999
     7.444421   0.711922     3.508128   6.614539   28.029545    1.769999
     7.479432   0.776954     3.501112   6.503210   27.274763    1.779999
     7.514373   0.840875     3.494110   6.392104   26.533897    1.789999
     7.549244   0.903687     3.487122   6.281219   25.806868    1.799999
     7.584046   0.965393     3.480147   6.170557   25.093599    1.809999
     7.618778   1.025994     3.473187   6.060116   24.394016    1.819999
     7.653440   1.085493     3.466241   5.949895   23.708040    1.829999
     7.688033   1.143892     3.459308   5.839896   23.035597    1.839999
     7.722557   1.201193     3.452389   5.730116   22.376610    1.849999
     7.757012   1.257398     3.445485   5.620556   21.731007    1.859999
     7.791398   1.312510     3.438594   5.511215   21.098707    1.869999
     7.825715   1.366531     3.431716   5.402092   20.479641    1.879999
     7.859963   1.419463     3.424853   5.293188   19.873730    1.889999
     7.894144   1.471308     3.418003   5.184502   19.280903    1.899999
     7.928255   1.522069     3.411167   5.076033   18.701086    1.909999
     7.962298   1.571746     3.404345   4.967781   18.134205    1.919999
     7.996274   1.620344     3.397536   4.859745   17.580187    1.929999
     8.030181   1.667863     3.390741   4.751925   17.038961    1.939999
     8.064020   1.714306     3.383960   4.644321   16.510452    1.949998
     8.097792   1.759676     3.377192   4.536933   15.994592    1.959998
     8.131496   1.803973     3.370437   4.429759   15.491305    1.969998
     8.165133   1.847201     3.363696   4.322800   15.000525    1.979998
     8.198703   1.889362     3.356969   4.216054   14.522176    1.989998
     8.232205   1.930457     3.350255   4.109522   14.056190    1.999998
     8.265641   1.970489     3.343554   4.003203   13.602495    2.009999
     8.299010   2.009460     3.336867   3.897096   13.161022    2.019999
     8.332313   2.047372     3.330194   3.791202   12.731702    2.029999
     8.365548   2.084227     3.323533   3.685520   12.314465    2.039999
     8.398717   2.120028     3.316886   3.580049   11.909241    2.049999
     8.431820   2.154776     3.310252   3.474789   11.515963    2.059999
     8.464856   2.188473     3.303632   3.369739   11.134562    2.069999
     8.497827   2.221122     3.297024   3.264899   10.764970    2.079998
     8.530731   2.252725     3.290431   3.160270   10.407119    2.089998
     8.563570   2.283283     3.283850   3.055849   10.060942    2.099998
     8.596343   2.312800     3.277282   2.951637   9.726370    2.109998
     8.629050   2.341276     3.270727   2.847634   9.403338    2.119998
     8.661692   2.368714     3.264186   2.743839   9.091781    2.129998
     8.694268   2.395117     3.257658   2.640251   8.791630    2.139998
     8.726780   2.420485     3.251142   2.536871   8.502819    2.149998
     8.759227   2.444823     3.244640   2.433697   8.225285    2.159998
     8.791608   2.468130     3.238151   2.330729   7.958960    2.169998
     8.823925   2.490410     3.231674   2.227968   7.703780    2.179998
     8.856177   2.511664     3.225211   2.125412   7.459681    2.189998
     8.888365   2.531894     3.218760   2.023061   7.226598    2.199998
     8.920488   2.551103     3.212323   1.920915   7.004467    2.209998
     8.952547   2.569293     3.205898   1.818973   6.793224    2.219998
     8.984542   2.586465     3.199486   1.717235   6.592805    2.229998
     9.016473   2.602622     3.193088   1.615701   6.403149    2.239998
     9.048340   2.617766     3.186701   1.514369   6.224190    2.249998
     9.080143   2.631898     3.180328   1.413241   6.055868    2.259998
     9.111882   2.645021     3.173967   1.312314   5.898118    2.269998
     9.143559   2.657137     3.167619   1.211590   5.750881    2.279998
     9.175171   2.668248     3.161284   1.111066   5.614092    2.289998
     9.206720   2.678356     3.154961   1.010744   5.487693    2.299998
     9.238207   2.687462     3.148651   0.910623   5.371620    2.309998
     9.269630   2.695569     3.142354   0.810702   5.265813    2.319998
     9.300991   2.702679     3.136069   0.710980   5.170212    2.329998
     9.332289   2.708793     3.129797   0.611458   5.084756    2.339998
     9.363524   2.713915     3.123538   0.512135   5.009385    2.349998
     9.394697   2.718045     3.117290   0.413011   4.944039    2.359998
     9.425808   2.721186     3.111056   0.314085   4.888659    2.369998
     9.456857   2.723339     3.104834   0.215357   4.843186    2.379998
     9.487843   2.724508     3.098624   0.116826   4.807560    2.389998
     9.518766   2.724693     3.092427   0.018492   4.781723    2.399998
     9.549629   2.723896     3.086242   -0.079645   4.765617    2.409998
     9.580430   2.722120     3.080070   -0.177585   4.759183    2.419998
     9.611169   2.719367     3.073910   -0.275330   4.762364    2.429998
     9.641847   2.715638     3.067762   -0.372879   4.775101    2.439998
     9.672462   2.710936     3.061626   -0.470234   4.797338    2.449998
     9.703017   2.705262     3.055503   -0.567393   4.829017    2.459998
     9.733511   2.698618     3.049392   -0.664358   4.870082    2.469998
     9.763944   2.691007     3.043293   -0.761130   4.920477    2.479998
     9.794315   2.682430     3.037207   -0.857708   4.980144    2.489998
     9.824627   2.672889     3.031132   -0.954092   5.049028    2.499998
     9.854877   2.662386     3.025070   -1.050284   5.127073    2.509998
     9.885068   2.650923     3.019020   -1.146283   5.214224    2.519998
     9.915197   2.638502     3.012982   -1.242091   5.310425    2.529998
     9.945267   2.625125     3.006956   -1.337707   5.415622    2.539998
     9.975276   2.610794     3.000942   -1.433131   5.529760    2.549998
     10.005225   2.595510     2.994940   -1.528365   5.652784    2.559998
     10.035114   2.579276     2.988950   -1.623408   5.784640    2.569998
     10.064944   2.562094     2.982973   -1.718262   5.925274    2.579998
     10.094714   2.543964     2.977007   -1.812925   6.074633    2.589998
     10.124425   2.524890     2.971053   -1.907399   6.232663    2.599998
     10.154076   2.504874     2.965111   -2.001684   6.399311    2.609998
     10.183667   2.483916     2.959180   -2.095781   6.574523    2.619998
     10.213200   2.462019     2.953262   -2.189690   6.758249    2.629998
     10.242673   2.439185     2.947356   -2.283410   6.950434    2.639998
     10.272087   2.415416     2.941461   -2.376944   7.151026    2.649998
     10.301443   2.390713     2.935578   -2.470290   7.359974    2.659998
